SpectraSuite Data File
++++++++++++++++++++++++++++++++++++
Date: Mon Nov 14 17:02:06 GMT 2022
User: sophysics
Dark Spectrum Present: No
Reference Spectrum Present: No
Number of Sampled Component Spectra: 1
Spectrometers: USB2G15921
Integration Time (usec): 10000 (USB2G15921)
Spectra Averaged: 10 (USB2G15921)
Boxcar Smoothing: 0 (USB2G15921)
Correct for Electrical Dark: No (USB2G15921)
Strobe/Lamp Enabled: No (USB2G15921)
Correct for Detector Non-linearity: No (USB2G15921)
Correct for Stray Light: No (USB2G15921)
Number of Pixels in Processed Spectrum: 2048
>>>>>Begin Processed Spectral Data<<<<<
339.16	0.00
339.53	127.20
339.91	127.90
340.28	128.30
340.66	128.20
341.03	130.70
341.41	131.10
341.78	132.10
342.16	133.00
342.54	132.70
342.91	132.90
343.29	133.90
343.66	133.60
344.04	132.30
344.41	133.40
344.79	133.70
345.16	134.90
345.54	134.30
345.91	134.20
346.29	134.00
346.66	133.90
347.04	133.30
347.41	134.10
347.79	133.60
348.16	134.40
348.54	138.80
348.91	137.90
349.29	138.50
349.66	137.80
350.04	138.80
350.41	138.40
350.79	138.10
351.16	138.90
351.54	138.60
351.91	138.90
352.29	139.00
352.66	140.40
353.04	139.40
353.41	139.80
353.78	138.80
354.16	141.30
354.53	141.30
354.91	140.90
355.28	141.70
355.66	141.40
356.03	140.30
356.40	141.70
356.78	141.80
357.15	140.10
357.53	142.00
357.90	142.30
358.28	143.70
358.65	142.40
359.02	142.60
359.40	142.40
359.77	143.70
360.15	142.30
360.52	142.80
360.89	143.90
361.27	143.90
361.64	143.80
362.01	144.20
362.39	145.10
362.76	144.20
363.14	145.30
363.51	144.70
363.88	146.10
364.26	146.60
364.63	145.90
365.00	146.50
365.38	147.30
365.75	148.20
366.12	147.00
366.50	148.00
366.87	148.80
367.24	148.50
367.62	149.10
367.99	150.60
368.36	150.50
368.74	149.10
369.11	151.60
369.48	151.40
369.86	152.60
370.23	152.50
370.60	151.90
370.97	152.80
371.35	152.60
371.72	153.60
372.09	154.90
372.47	155.20
372.84	154.60
373.21	154.40
373.58	156.30
373.96	155.70
374.33	156.50
374.70	156.30
375.07	155.30
375.45	155.10
375.82	157.30
376.19	160.90
376.56	159.70
376.94	161.30
377.31	161.20
377.68	160.90
378.05	161.40
378.43	162.20
378.80	162.50
379.17	162.70
379.54	165.00
379.92	165.40
380.29	164.40
380.66	166.00
381.03	167.90
381.40	168.00
381.78	170.50
382.15	170.60
382.52	171.80
382.89	172.30
383.26	173.80
383.63	172.90
384.01	174.20
384.38	175.70
384.75	176.60
385.12	177.30
385.49	179.80
385.86	180.70
386.24	181.40
386.61	184.00
386.98	183.00
387.35	185.50
387.72	185.30
388.09	187.00
388.46	189.70
388.84	189.00
389.21	190.80
389.58	190.80
389.95	192.50
390.32	195.00
390.69	195.50
391.06	196.20
391.43	197.70
391.81	201.80
392.18	200.50
392.55	200.00
392.92	203.40
393.29	207.60
393.66	207.50
394.03	206.60
394.40	209.20
394.77	208.80
395.14	208.60
395.51	211.80
395.88	215.60
396.25	213.80
396.63	216.00
397.00	219.60
397.37	219.50
397.74	223.40
398.11	222.10
398.48	225.60
398.85	227.70
399.22	225.80
399.59	229.40
399.96	232.10
400.33	232.10
400.70	234.40
401.07	238.10
401.44	237.60
401.81	243.30
402.18	244.90
402.55	243.20
402.92	246.40
403.29	252.30
403.66	249.30
404.03	252.30
404.40	256.00
404.77	255.80
405.14	262.50
405.51	262.10
405.88	263.00
406.25	266.40
406.62	267.50
406.99	269.30
407.36	277.40
407.73	275.60
408.10	279.60
408.47	280.80
408.84	279.50
409.20	285.00
409.57	286.70
409.94	292.30
410.31	289.10
410.68	288.50
411.05	292.60
411.42	298.60
411.79	300.50
412.16	301.90
412.53	305.70
412.90	309.50
413.27	303.50
413.63	316.10
414.00	317.10
414.37	320.40
414.74	316.10
415.11	322.40
415.48	321.60
415.85	327.80
416.22	327.60
416.59	329.90
416.95	328.90
417.32	336.60
417.69	338.50
418.06	343.80
418.43	345.10
418.80	340.50
419.17	353.00
419.53	337.90
419.90	351.70
420.27	358.20
420.64	357.10
421.01	362.60
421.38	360.00
421.74	361.60
422.11	368.80
422.48	379.40
422.85	372.80
423.22	372.00
423.58	386.10
423.95	374.40
424.32	387.20
424.69	393.00
425.06	390.10
425.42	397.10
425.79	398.40
426.16	405.60
426.53	407.20
426.89	402.90
427.26	418.50
427.63	411.20
428.00	416.30
428.36	423.40
428.73	424.20
429.10	437.20
429.47	437.00
429.83	442.70
430.20	441.10
430.57	454.80
430.94	448.90
431.30	454.50
431.67	468.00
432.04	457.80
432.41	471.50
432.77	465.40
433.14	480.60
433.51	489.80
433.87	479.40
434.24	483.50
434.61	487.60
434.97	488.80
435.34	504.50
435.71	511.50
436.08	515.30
436.44	515.40
436.81	525.90
437.18	521.10
437.54	528.10
437.91	529.60
438.28	532.40
438.64	542.50
439.01	557.00
439.38	554.00
439.74	559.50
440.11	549.00
440.47	568.00
440.84	576.00
441.21	573.80
441.57	580.10
441.94	582.20
442.31	578.30
442.67	583.40
443.04	604.20
443.40	593.70
443.77	592.10
444.14	598.50
444.50	618.20
444.87	615.10
445.23	615.40
445.60	626.60
445.97	623.30
446.33	631.40
446.70	638.80
447.06	625.30
447.43	643.80
447.79	624.90
448.16	653.90
448.53	653.50
448.89	664.00
449.26	661.90
449.62	652.00
449.99	671.40
450.35	658.10
450.72	671.90
451.08	673.90
451.45	668.60
451.81	690.00
452.18	690.70
452.54	691.50
452.91	691.30
453.27	703.60
453.64	711.40
454.00	707.10
454.37	698.40
454.73	734.80
455.10	724.80
455.46	733.60
455.83	745.40
456.19	748.10
456.56	749.60
456.92	752.30
457.29	765.90
457.65	750.50
458.02	771.00
458.38	776.50
458.75	789.30
459.11	789.00
459.48	792.40
459.84	801.30
460.20	815.40
460.57	810.90
460.93	810.00
461.30	826.10
461.66	825.20
462.03	839.50
462.39	859.20
462.75	869.60
463.12	871.10
463.48	871.90
463.85	868.80
464.21	897.70
464.57	889.10
464.94	905.60
465.30	911.00
465.67	910.20
466.03	904.80
466.39	911.60
466.76	934.30
467.12	940.80
467.49	940.10
467.85	960.40
468.21	958.70
468.58	975.00
468.94	979.80
469.30	994.20
469.67	984.40
470.03	1003.00
470.39	1002.30
470.76	1008.00
471.12	1030.30
471.48	1037.20
471.85	1031.20
472.21	1035.80
472.57	1058.60
472.94	1060.20
473.30	1061.80
473.66	1066.00
474.03	1076.70
474.39	1092.70
474.75	1105.20
475.11	1089.40
475.48	1120.80
475.84	1127.80
476.20	1130.90
476.57	1148.30
476.93	1150.30
477.29	1154.00
477.65	1160.40
478.02	1175.40
478.38	1194.60
478.74	1198.20
479.10	1204.60
479.47	1208.40
479.83	1223.20
480.19	1233.80
480.55	1241.70
480.92	1246.70
481.28	1270.00
481.64	1269.20
482.00	1279.10
482.36	1296.10
482.73	1311.30
483.09	1319.40
483.45	1336.50
483.81	1353.80
484.17	1354.20
484.54	1371.10
484.90	1378.30
485.26	1372.10
485.62	1385.80
485.98	1392.60
486.35	1415.70
486.71	1428.20
487.07	1439.80
487.43	1457.40
487.79	1470.80
488.15	1475.40
488.52	1491.70
488.88	1502.50
489.24	1504.20
489.60	1518.50
489.96	1531.00
490.32	1552.50
490.68	1561.10
491.04	1571.30
491.41	1587.70
491.77	1595.90
492.13	1602.00
492.49	1623.80
492.85	1621.40
493.21	1648.70
493.57	1651.90
493.93	1665.60
494.29	1680.30
494.65	1690.20
495.02	1702.70
495.38	1715.20
495.74	1724.60
496.10	1735.10
496.46	1731.40
496.82	1755.60
497.18	1765.10
497.54	1787.00
497.90	1783.50
498.26	1799.30
498.62	1810.90
498.98	1818.90
499.34	1829.70
499.70	1826.00
500.06	1848.00
500.42	1851.30
500.78	1867.10
501.14	1873.70
501.50	1885.20
501.86	1895.20
502.22	1901.50
502.58	1909.20
502.94	1914.80
503.30	1933.00
503.66	1931.60
504.02	1942.60
504.38	1939.70
504.74	1950.20
505.10	1958.80
505.46	1966.30
505.82	1980.70
506.18	1982.70
506.54	1994.10
506.90	1983.90
507.26	1979.40
507.62	1990.30
507.98	2011.90
508.34	1993.30
508.70	1992.80
509.06	2018.00
509.42	2000.50
509.78	2020.70
510.14	2017.50
510.50	2027.20
510.85	2022.40
511.21	2033.00
511.57	2029.80
511.93	2043.90
512.29	2045.70
512.65	2046.20
513.01	2049.40
513.37	2054.20
513.73	2058.00
514.09	2055.30
514.44	2066.60
514.80	2056.50
515.16	2062.90
515.52	2062.70
515.88	2074.30
516.24	2072.00
516.60	2081.30
516.95	2078.50
517.31	2086.00
517.67	2098.70
518.03	2096.30
518.39	2105.40
518.75	2093.10
519.10	2091.10
519.46	2110.40
519.82	2110.60
520.18	2115.40
520.54	2113.90
520.90	2109.30
521.25	2122.10
521.61	2137.80
521.97	2146.60
522.33	2138.80
522.69	2147.80
523.04	2155.40
523.40	2152.50
523.76	2151.70
524.12	2168.20
524.47	2171.20
524.83	2169.10
525.19	2181.70
525.55	2171.80
525.90	2198.10
526.26	2191.10
526.62	2197.50
526.98	2208.90
527.33	2212.60
527.69	2226.70
528.05	2240.90
528.41	2235.70
528.76	2251.70
529.12	2246.70
529.48	2279.60
529.83	2277.40
530.19	2277.90
530.55	2277.50
530.91	2279.30
531.26	2309.60
531.62	2304.60
531.98	2330.00
532.33	2319.70
532.69	2327.80
533.05	2356.80
533.40	2348.80
533.76	2363.10
534.12	2391.00
534.47	2376.10
534.83	2383.00
535.19	2405.80
535.54	2426.60
535.90	2428.30
536.26	2435.40
536.61	2440.50
536.97	2445.30
537.32	2468.50
537.68	2482.00
538.04	2500.50
538.39	2506.70
538.75	2509.90
539.11	2516.60
539.46	2534.30
539.82	2524.70
540.17	2557.50
540.53	2568.10
540.88	2570.80
541.24	2573.20
541.60	2593.80
541.95	2606.30
542.31	2599.10
542.66	2632.10
543.02	2632.10
543.37	2631.60
543.73	2632.00
544.09	2649.50
544.44	2657.50
544.80	2653.20
545.15	2653.20
545.51	2669.30
545.86	2697.30
546.22	2685.10
546.57	2702.50
546.93	2691.60
547.28	2707.40
547.64	2715.00
547.99	2710.60
548.35	2729.00
548.70	2721.30
549.06	2724.80
549.41	2734.90
549.77	2741.20
550.12	2747.10
550.48	2753.00
550.83	2757.60
551.19	2740.20
551.54	2750.50
551.90	2753.10
552.25	2757.00
552.61	2755.90
552.96	2753.00
553.32	2766.30
553.67	2759.30
554.02	2768.20
554.38	2767.40
554.73	2774.40
555.09	2762.20
555.44	2767.40
555.80	2772.70
556.15	2782.30
556.50	2784.20
556.86	2787.30
557.21	2775.00
557.57	2786.30
557.92	2785.20
558.27	2798.90
558.63	2786.90
558.98	2773.40
559.34	2796.00
559.69	2789.30
560.04	2786.80
560.40	2779.40
560.75	2766.40
561.10	2783.90
561.46	2783.80
561.81	2784.80
562.16	2771.70
562.52	2773.40
562.87	2779.60
563.23	2765.30
563.58	2781.30
563.93	2775.10
564.28	2776.50
564.64	2788.10
564.99	2765.20
565.34	2791.30
565.70	2784.40
566.05	2793.70
566.40	2786.10
566.76	2785.60
567.11	2782.00
567.46	2792.50
567.82	2787.00
568.17	2794.40
568.52	2799.90
568.87	2797.70
569.23	2811.80
569.58	2819.30
569.93	2803.50
570.28	2807.00
570.64	2830.10
570.99	2832.70
571.34	2818.60
571.69	2820.50
572.05	2829.70
572.40	2825.70
572.75	2832.90
573.10	2831.90
573.46	2843.30
573.81	2838.80
574.16	2856.70
574.51	2845.90
574.86	2845.60
575.22	2868.30
575.57	2874.30
575.92	2869.30
576.27	2878.80
576.62	2864.30
576.97	2889.70
577.33	2908.30
577.68	2877.80
578.03	2912.80
578.38	2895.70
578.73	2914.50
579.08	2916.60
579.44	2931.80
579.79	2938.70
580.14	2955.20
580.49	2971.60
580.84	2955.70
581.19	2955.70
581.54	2975.60
581.90	2987.30
582.25	2992.10
582.60	2984.90
582.95	2992.50
583.30	2970.60
583.65	3014.90
584.00	3012.00
584.35	3014.20
584.70	3026.30
585.05	3038.90
585.41	3033.80
585.76	3019.00
586.11	3064.00
586.46	3066.70
586.81	3072.30
587.16	3068.50
587.51	3085.20
587.86	3091.40
588.21	3096.30
588.56	3106.80
588.91	3100.80
589.26	3103.70
589.61	3113.10
589.96	3129.40
590.31	3137.90
590.66	3151.80
591.01	3132.60
591.36	3151.00
591.71	3130.10
592.06	3157.90
592.41	3178.00
592.76	3183.00
593.11	3189.80
593.46	3181.10
593.81	3190.00
594.16	3198.60
594.51	3213.60
594.86	3200.60
595.21	3203.60
595.56	3209.30
595.91	3212.00
596.26	3225.40
596.61	3219.10
596.96	3199.50
597.31	3191.20
597.66	3193.00
598.01	3196.90
598.36	3209.40
598.71	3201.70
599.05	3201.50
599.40	3204.80
599.75	3216.30
600.10	3214.30
600.45	3210.70
600.80	3213.90
601.15	3189.10
601.50	3199.90
601.85	3207.20
602.20	3192.80
602.54	3192.00
602.89	3180.10
603.24	3188.70
603.59	3181.10
603.94	3187.20
604.29	3191.00
604.64	3184.70
604.98	3189.40
605.33	3170.30
605.68	3183.70
606.03	3174.40
606.38	3159.00
606.73	3164.30
607.07	3151.10
607.42	3154.00
607.77	3131.60
608.12	3146.80
608.47	3141.10
608.82	3120.20
609.16	3135.60
609.51	3135.60
609.86	3124.60
610.21	3121.90
610.55	3111.70
610.90	3088.10
611.25	3100.60
611.60	3118.60
611.95	3095.00
612.29	3097.40
612.64	3093.70
612.99	3091.20
613.34	3104.50
613.68	3091.30
614.03	3058.90
614.38	3055.90
614.73	3058.60
615.07	3062.80
615.42	3087.10
615.77	3082.70
616.11	3061.90
616.46	3073.00
616.81	3057.60
617.16	3042.70
617.50	3033.60
617.85	3045.90
618.20	3034.20
618.54	3034.40
618.89	3037.30
619.24	3039.40
619.58	3031.00
619.93	3025.70
620.28	3022.60
620.62	3018.30
620.97	3021.70
621.32	3036.40
621.66	3029.50
622.01	3020.00
622.36	3005.20
622.70	3009.10
623.05	3008.30
623.39	3015.80
623.74	2997.10
624.09	2994.40
624.43	3009.50
624.78	2990.10
625.13	2983.90
625.47	2986.70
625.82	2988.80
626.16	3003.90
626.51	3008.60
626.85	2984.10
627.20	2997.80
627.55	2979.80
627.89	2997.50
628.24	2995.40
628.58	2982.80
628.93	3002.70
629.27	2988.90
629.62	3003.40
629.97	3018.90
630.31	3007.30
630.66	2990.60
631.00	2997.90
631.35	2974.40
631.69	2980.20
632.04	2982.60
632.38	2990.20
632.73	2986.20
633.07	3018.50
633.42	2999.20
633.76	3012.30
634.11	3008.20
634.45	3010.40
634.80	2993.50
635.14	2997.90
635.49	2994.90
635.83	3003.90
636.18	2995.30
636.52	3029.70
636.87	3033.70
637.21	3012.80
637.55	3023.10
637.90	3001.90
638.24	3011.00
638.59	3006.70
638.93	2992.50
639.28	3010.80
639.62	3018.50
639.96	3015.50
640.31	3005.70
640.65	3017.20
641.00	2990.20
641.34	2993.40
641.69	3007.70
642.03	3031.10
642.37	3025.30
642.72	3021.90
643.06	3034.20
643.40	3032.10
643.75	2996.40
644.09	3001.40
644.44	3035.80
644.78	3022.90
645.12	3007.40
645.47	3007.60
645.81	3013.90
646.15	3017.70
646.50	3027.50
646.84	3031.50
647.18	3027.00
647.53	3032.50
647.87	2998.30
648.21	3008.90
648.56	2997.40
648.90	3005.80
649.24	3035.30
649.59	2987.60
649.93	3005.00
650.27	3009.50
650.61	2991.90
650.96	2989.90
651.30	2975.40
651.64	2998.60
651.98	2987.30
652.33	2984.80
652.67	2964.20
653.01	2960.60
653.36	2955.00
653.70	2951.20
654.04	2953.20
654.38	2952.40
654.72	2923.00
655.07	2946.70
655.41	2950.40
655.75	2949.60
656.09	2938.00
656.44	2917.20
656.78	2935.80
657.12	2925.70
657.46	2912.40
657.80	2911.00
658.15	2918.70
658.49	2911.10
658.83	2904.60
659.17	2887.60
659.51	2905.80
659.86	2889.00
660.20	2895.50
660.54	2875.10
660.88	2848.10
661.22	2864.40
661.56	2839.20
661.90	2842.20
662.25	2826.20
662.59	2823.90
662.93	2816.60
663.27	2823.00
663.61	2790.60
663.95	2785.10
664.29	2792.00
664.63	2794.00
664.98	2776.20
665.32	2770.00
665.66	2756.40
666.00	2744.10
666.34	2732.40
666.68	2731.10
667.02	2728.10
667.36	2714.40
667.70	2706.30
668.04	2702.70
668.38	2692.30
668.72	2686.10
669.06	2696.10
669.40	2694.50
669.75	2677.90
670.09	2675.20
670.43	2667.40
670.77	2652.40
671.11	2655.70
671.45	2647.20
671.79	2651.10
672.13	2640.10
672.47	2621.50
672.81	2617.30
673.15	2600.60
673.49	2591.90
673.83	2598.00
674.17	2589.00
674.51	2592.20
674.85	2561.20
675.19	2542.60
675.53	2558.50
675.87	2523.30
676.20	2531.30
676.54	2544.40
676.88	2528.30
677.22	2514.00
677.56	2517.40
677.90	2509.70
678.24	2503.80
678.58	2503.70
678.92	2509.50
679.26	2486.40
679.60	2466.40
679.94	2460.60
680.28	2465.20
680.62	2453.10
680.95	2427.70
681.29	2442.70
681.63	2450.90
681.97	2438.00
682.31	2451.50
682.65	2432.60
682.99	2424.60
683.33	2419.70
683.66	2420.00
684.00	2426.00
684.34	2415.00
684.68	2413.20
685.02	2393.10
685.36	2394.70
685.70	2377.50
686.03	2397.20
686.37	2397.50
686.71	2363.90
687.05	2381.50
687.39	2375.10
687.72	2366.40
688.06	2373.60
688.40	2381.70
688.74	2381.40
689.08	2339.00
689.41	2333.40
689.75	2323.60
690.09	2330.70
690.43	2344.70
690.77	2341.10
691.10	2343.40
691.44	2335.80
691.78	2308.60
692.12	2316.80
692.45	2333.80
692.79	2321.50
693.13	2322.50
693.46	2315.40
693.80	2301.80
694.14	2307.50
694.48	2299.40
694.81	2312.30
695.15	2308.70
695.49	2307.60
695.82	2287.00
696.16	2299.60
696.50	2288.00
696.84	2271.60
697.17	2275.50
697.51	2284.70
697.85	2270.10
698.18	2273.50
698.52	2272.90
698.86	2288.10
699.19	2280.00
699.53	2275.90
699.87	2287.00
700.20	2275.10
700.54	2253.10
700.87	2272.20
701.21	2258.40
701.55	2270.70
701.88	2268.90
702.22	2261.80
702.56	2262.00
702.89	2250.00
703.23	2259.70
703.56	2267.60
703.90	2251.80
704.23	2266.90
704.57	2277.40
704.91	2272.50
705.24	2253.60
705.58	2252.70
705.91	2263.50
706.25	2267.20
706.58	2253.20
706.92	2246.40
707.26	2253.10
707.59	2229.30
707.93	2239.60
708.26	2227.00
708.60	2245.30
708.93	2244.70
709.27	2234.00
709.60	2227.70
709.94	2242.70
710.27	2236.00
710.61	2235.70
710.94	2230.20
711.28	2231.00
711.61	2220.20
711.95	2213.70
712.28	2223.40
712.62	2216.80
712.95	2218.80
713.29	2225.10
713.62	2197.50
713.96	2223.90
714.29	2216.50
714.62	2200.80
714.96	2212.10
715.29	2210.20
715.63	2204.40
715.96	2194.30
716.30	2194.90
716.63	2198.00
716.96	2189.20
717.30	2192.50
717.63	2188.40
717.97	2181.00
718.30	2171.20
718.63	2171.20
718.97	2162.10
719.30	2171.30
719.64	2161.50
719.97	2168.40
720.30	2177.10
720.64	2168.80
720.97	2163.80
721.30	2158.30
721.64	2158.90
721.97	2161.50
722.30	2141.70
722.64	2150.20
722.97	2141.90
723.30	2120.50
723.64	2129.60
723.97	2115.50
724.30	2131.30
724.64	2115.30
724.97	2118.30
725.30	2104.70
725.64	2101.10
725.97	2102.50
726.30	2104.60
726.63	2082.60
726.97	2074.20
727.30	2093.80
727.63	2078.10
727.97	2068.20
728.30	2077.10
728.63	2075.30
728.96	2057.30
729.30	2055.20
729.63	2028.00
729.96	2046.60
730.29	2051.40
730.62	2047.10
730.96	2000.80
731.29	2035.10
731.62	2023.90
731.95	2023.60
732.28	2012.70
732.62	2017.10
732.95	1991.40
733.28	1969.00
733.61	1967.10
733.94	1971.50
734.28	1973.40
734.61	1964.50
734.94	1957.80
735.27	1948.30
735.60	1948.60
735.93	1945.20
736.27	1919.80
736.60	1903.00
736.93	1905.50
737.26	1895.70
737.59	1898.90
737.92	1897.70
738.25	1877.70
738.58	1859.50
738.92	1864.10
739.25	1868.00
739.58	1874.20
739.91	1845.00
740.24	1824.60
740.57	1845.30
740.90	1847.50
741.23	1828.10
741.56	1813.50
741.89	1803.60
742.22	1797.70
742.55	1814.60
742.89	1795.60
743.22	1791.00
743.55	1777.10
743.88	1773.70
744.21	1770.90
744.54	1765.70
744.87	1754.30
745.20	1746.00
745.53	1737.40
745.86	1732.20
746.19	1724.60
746.52	1714.70
746.85	1707.40
747.18	1696.60
747.51	1684.40
747.84	1680.40
748.17	1682.40
748.50	1677.70
748.83	1665.80
749.16	1661.00
749.49	1658.50
749.82	1647.70
750.14	1647.40
750.47	1639.00
750.80	1624.60
751.13	1639.20
751.46	1640.30
751.79	1631.40
752.12	1621.60
752.45	1598.80
752.78	1586.10
753.11	1583.60
753.44	1576.90
753.77	1569.60
754.10	1564.00
754.42	1563.20
754.75	1559.70
755.08	1543.40
755.41	1542.30
755.74	1541.40
756.07	1550.50
756.40	1542.20
756.72	1526.50
757.05	1515.00
757.38	1505.00
757.71	1515.80
758.04	1513.60
758.37	1489.80
758.70	1471.30
759.02	1478.00
759.35	1474.90
759.68	1466.80
760.01	1460.00
760.34	1471.40
760.66	1468.10
760.99	1456.60
761.32	1451.20
761.65	1451.40
761.98	1435.10
762.30	1440.20
762.63	1440.20
762.96	1445.40
763.29	1430.80
763.61	1418.70
763.94	1398.40
764.27	1418.40
764.60	1408.80
764.92	1397.10
765.25	1387.90
765.58	1386.40
765.91	1381.00
766.23	1384.20
766.56	1369.80
766.89	1371.20
767.21	1359.40
767.54	1346.20
767.87	1362.40
768.19	1354.70
768.52	1355.30
768.85	1351.10
769.17	1354.90
769.50	1342.60
769.83	1339.90
770.15	1332.70
770.48	1334.20
770.81	1325.30
771.13	1313.20
771.46	1316.60
771.79	1308.60
772.11	1302.60
772.44	1298.00
772.77	1299.80
773.09	1295.00
773.42	1274.70
773.74	1288.10
774.07	1276.90
774.40	1277.40
774.72	1275.20
775.05	1300.20
775.37	1283.70
775.70	1276.80
776.03	1272.30
776.35	1261.80
776.68	1270.40
777.00	1255.80
777.33	1254.90
777.65	1240.70
777.98	1246.00
778.30	1241.50
778.63	1223.10
778.96	1243.50
779.28	1236.90
779.61	1225.10
779.93	1222.10
780.26	1221.20
780.58	1217.50
780.91	1221.00
781.23	1216.10
781.56	1208.40
781.88	1207.60
782.21	1211.70
782.53	1208.30
782.86	1205.30
783.18	1199.20
783.50	1196.60
783.83	1197.70
784.15	1184.90
784.48	1187.20
784.80	1180.40
785.13	1170.90
785.45	1185.70
785.78	1167.70
786.10	1176.30
786.42	1168.50
786.75	1174.90
787.07	1179.40
787.40	1166.00
787.72	1158.80
788.04	1151.50
788.37	1149.90
788.69	1148.60
789.02	1137.00
789.34	1130.70
789.66	1134.70
789.99	1138.50
790.31	1130.50
790.63	1136.60
790.96	1135.90
791.28	1144.50
791.61	1132.50
791.93	1139.60
792.25	1138.30
792.58	1125.10
792.90	1130.10
793.22	1141.70
793.54	1135.80
793.87	1140.10
794.19	1135.50
794.51	1122.50
794.84	1117.80
795.16	1117.20
795.48	1112.30
795.81	1116.70
796.13	1140.50
796.45	1137.20
796.77	1129.00
797.10	1144.90
797.42	1154.90
797.74	1143.90
798.06	1146.90
798.39	1142.40
798.71	1157.30
799.03	1149.30
799.35	1158.50
799.67	1154.90
800.00	1162.20
800.32	1164.20
800.64	1164.60
800.96	1167.70
801.29	1157.30
801.61	1160.90
801.93	1156.20
802.25	1153.40
802.57	1166.30
802.89	1173.20
803.22	1178.40
803.54	1185.80
803.86	1182.30
804.18	1182.00
804.50	1174.70
804.82	1170.90
805.15	1176.90
805.47	1186.30
805.79	1183.10
806.11	1173.60
806.43	1174.10
806.75	1175.10
807.07	1174.50
807.39	1175.60
807.71	1179.60
808.04	1178.00
808.36	1184.70
808.68	1181.90
809.00	1195.40
809.32	1203.60
809.64	1201.00
809.96	1195.40
810.28	1187.80
810.60	1177.30
810.92	1173.50
811.24	1179.40
811.56	1187.30
811.88	1175.20
812.20	1171.20
812.52	1181.80
812.84	1181.30
813.16	1185.30
813.48	1176.00
813.80	1183.50
814.12	1182.60
814.44	1178.40
814.76	1175.60
815.08	1162.60
815.40	1169.20
815.72	1163.90
816.04	1158.40
816.36	1165.50
816.68	1169.70
817.00	1164.60
817.32	1165.10
817.64	1162.60
817.96	1148.30
818.28	1140.10
818.60	1149.90
818.92	1156.40
819.24	1156.00
819.56	1144.30
819.88	1131.40
820.19	1142.10
820.51	1137.10
820.83	1144.40
821.15	1144.80
821.47	1134.50
821.79	1133.30
822.11	1137.00
822.43	1132.20
822.75	1126.20
823.06	1119.10
823.38	1112.90
823.70	1117.50
824.02	1105.90
824.34	1100.20
824.66	1110.00
824.97	1105.30
825.29	1108.10
825.61	1102.60
825.93	1084.30
826.25	1073.10
826.57	1069.50
826.88	1067.10
827.20	1066.20
827.52	1078.70
827.84	1064.60
828.15	1063.60
828.47	1064.40
828.79	1059.40
829.11	1074.60
829.43	1075.20
829.74	1053.70
830.06	1054.10
830.38	1057.00
830.70	1046.70
831.01	1050.30
831.33	1041.40
831.65	1049.50
831.96	1040.20
832.28	1025.30
832.60	1026.70
832.92	1017.50
833.23	1012.40
833.55	1005.00
833.87	996.80
834.18	1008.70
834.50	1006.70
834.82	1014.50
835.13	1006.90
835.45	998.30
835.77	988.80
836.08	1000.00
836.40	986.70
836.72	991.70
837.03	981.70
837.35	976.10
837.67	983.40
837.98	967.70
838.30	956.20
838.61	963.40
838.93	946.50
839.25	944.40
839.56	945.60
839.88	940.00
840.19	940.50
840.51	938.50
840.83	941.90
841.14	943.80
841.46	931.40
841.77	930.80
842.09	918.10
842.40	916.40
842.72	915.70
843.04	903.30
843.35	910.60
843.67	904.60
843.98	886.30
844.30	896.80
844.61	888.00
844.93	878.30
845.24	879.10
845.56	880.70
845.87	883.30
846.19	871.60
846.50	873.30
846.82	859.30
847.13	863.20
847.45	852.80
847.76	855.80
848.08	856.90
848.39	857.30
848.70	858.30
849.02	843.50
849.33	842.30
849.65	837.30
849.96	839.50
850.28	834.30
850.59	830.80
850.91	819.50
851.22	823.50
851.53	822.10
851.85	815.60
852.16	813.30
852.48	818.40
852.79	802.60
853.10	802.90
853.42	808.00
853.73	799.00
854.04	797.10
854.36	789.40
854.67	784.70
854.99	787.90
855.30	787.60
855.61	777.40
855.93	776.10
856.24	766.50
856.55	764.30
856.87	769.80
857.18	770.30
857.49	763.10
857.80	765.90
858.12	765.70
858.43	757.20
858.74	758.40
859.06	748.20
859.37	745.40
859.68	731.60
859.99	738.10
860.31	738.60
860.62	738.40
860.93	736.70
861.24	723.80
861.56	723.70
861.87	723.20
862.18	722.90
862.49	718.70
862.81	713.70
863.12	711.20
863.43	700.80
863.74	699.30
864.05	695.30
864.37	698.90
864.68	697.60
864.99	698.40
865.30	696.00
865.61	694.70
865.93	687.90
866.24	684.80
866.55	677.80
866.86	677.40
867.17	677.00
867.48	674.80
867.80	679.50
868.11	669.80
868.42	675.50
868.73	673.90
869.04	671.20
869.35	670.30
869.66	665.30
869.97	658.10
870.28	662.50
870.60	654.50
870.91	649.50
871.22	645.30
871.53	640.70
871.84	634.60
872.15	633.20
872.46	626.00
872.77	627.60
873.08	633.90
873.39	629.50
873.70	621.20
874.01	620.10
874.32	615.90
874.63	605.40
874.94	606.10
875.25	609.00
875.56	608.70
875.87	606.20
876.18	606.10
876.49	612.50
876.80	608.50
877.11	604.20
877.42	604.30
877.73	596.50
878.04	602.20
878.35	593.20
878.66	596.80
878.97	593.60
879.28	597.20
879.59	588.80
879.90	585.30
880.21	579.80
880.52	574.80
880.83	582.80
881.14	579.00
881.45	580.70
881.76	585.60
882.06	582.10
882.37	580.80
882.68	583.60
882.99	573.90
883.30	573.00
883.61	573.00
883.92	575.40
884.23	578.00
884.54	574.60
884.84	575.00
885.15	575.90
885.46	578.00
885.77	579.30
886.08	575.70
886.39	575.10
886.69	583.50
887.00	577.30
887.31	575.40
887.62	571.80
887.93	578.40
888.23	576.40
888.54	577.40
888.85	568.90
889.16	570.90
889.47	571.80
889.77	567.50
890.08	571.20
890.39	570.30
890.70	572.80
891.00	573.90
891.31	567.80
891.62	578.60
891.93	572.80
892.23	570.70
892.54	575.00
892.85	574.10
893.16	575.20
893.46	570.80
893.77	582.30
894.08	564.70
894.38	568.70
894.69	566.10
895.00	570.10
895.30	574.80
895.61	575.80
895.92	574.60
896.22	568.00
896.53	571.10
896.84	566.10
897.14	574.10
897.45	574.70
897.76	566.10
898.06	569.80
898.37	566.60
898.68	571.00
898.98	570.40
899.29	571.20
899.59	578.30
899.90	575.80
900.21	571.80
900.51	569.10
900.82	565.60
901.12	574.20
901.43	569.40
901.73	567.80
902.04	567.20
902.35	569.70
902.65	561.50
902.96	573.20
903.26	571.90
903.57	568.10
903.87	571.10
904.18	568.40
904.48	557.80
904.79	564.40
905.09	557.90
905.40	559.60
905.70	557.70
906.01	559.10
906.31	555.60
906.62	553.60
906.92	556.60
907.23	551.20
907.53	554.60
907.84	555.20
908.14	554.70
908.45	555.20
908.75	550.70
909.05	553.70
909.36	549.80
909.66	547.80
909.97	539.50
910.27	533.40
910.58	536.90
910.88	547.70
911.18	548.00
911.49	550.00
911.79	544.00
912.10	537.50
912.40	539.50
912.70	541.50
913.01	535.80
913.31	533.90
913.61	525.50
913.92	524.10
914.22	531.00
914.52	525.50
914.83	522.50
915.13	513.40
915.44	520.40
915.74	523.10
916.04	525.40
916.34	517.80
916.65	521.30
916.95	522.40
917.25	514.60
917.56	511.70
917.86	513.70
918.16	509.40
918.46	506.70
918.77	507.70
919.07	505.60
919.37	505.30
919.68	512.80
919.98	509.80
920.28	508.80
920.58	504.70
920.89	502.80
921.19	496.90
921.49	489.30
921.79	495.40
922.09	494.40
922.40	488.80
922.70	489.60
923.00	482.70
923.30	487.60
923.60	484.70
923.91	482.30
924.21	482.10
924.51	480.30
924.81	478.80
925.11	479.30
925.41	476.20
925.71	474.10
926.02	477.40
926.32	471.90
926.62	463.50
926.92	464.90
927.22	468.20
927.52	464.90
927.82	463.40
928.12	458.00
928.43	455.40
928.73	455.20
929.03	457.20
929.33	454.20
929.63	455.30
929.93	451.30
930.23	448.40
930.53	444.60
930.83	452.00
931.13	448.10
931.43	446.00
931.73	443.00
932.03	443.20
932.33	442.70
932.63	444.50
932.93	441.00
933.23	439.10
933.53	435.00
933.83	438.00
934.13	439.80
934.43	438.50
934.73	431.70
935.03	430.40
935.33	432.50
935.63	431.60
935.93	430.20
936.23	427.50
936.53	425.40
936.83	422.40
937.13	422.80
937.43	421.80
937.73	418.70
938.03	415.60
938.33	412.70
938.63	418.80
938.93	416.40
939.22	415.90
939.52	413.70
939.82	406.10
940.12	401.90
940.42	402.10
940.72	401.30
941.02	397.30
941.32	395.70
941.62	396.50
941.91	396.70
942.21	395.50
942.51	397.40
942.81	393.80
943.11	389.50
943.41	389.00
943.70	391.20
944.00	387.40
944.30	382.00
944.60	383.90
944.90	380.80
945.19	381.40
945.49	380.40
945.79	377.10
946.09	374.60
946.39	372.10
946.68	369.30
946.98	365.80
947.28	368.00
947.58	370.70
947.87	369.80
948.17	370.60
948.47	372.00
948.76	367.30
949.06	364.70
949.36	361.00
949.66	361.50
949.95	359.60
950.25	353.40
950.55	360.20
950.84	360.90
951.14	363.50
951.44	354.30
951.73	352.60
952.03	348.20
952.33	347.40
952.62	346.10
952.92	344.90
953.22	346.30
953.51	342.50
953.81	346.60
954.11	345.40
954.40	340.80
954.70	337.90
955.00	335.00
955.29	336.00
955.59	330.30
955.88	331.30
956.18	330.90
956.47	328.90
956.77	331.00
957.07	327.40
957.36	329.80
957.66	329.00
957.95	328.70
958.25	321.30
958.54	319.80
958.84	321.30
959.14	321.00
959.43	317.10
959.73	316.70
960.02	315.20
960.32	312.30
960.61	314.90
960.91	313.20
961.20	309.50
961.50	310.80
961.79	308.00
962.09	308.00
962.38	305.30
962.68	304.60
962.97	303.70
963.26	304.70
963.56	305.00
963.85	299.50
964.15	297.50
964.44	297.00
964.74	296.60
965.03	297.00
965.32	293.00
965.62	293.30
965.91	289.90
966.21	292.50
966.50	291.00
966.79	288.40
967.09	290.30
967.38	286.90
967.68	288.90
967.97	287.50
968.26	286.00
968.56	283.50
968.85	279.90
969.14	279.80
969.44	275.10
969.73	276.10
970.02	274.40
970.32	272.90
970.61	273.50
970.90	269.20
971.20	271.30
971.49	271.40
971.78	275.60
972.08	271.20
972.37	269.50
972.66	266.00
972.95	264.60
973.25	267.10
973.54	263.20
973.83	263.20
974.12	263.40
974.42	262.40
974.71	261.10
975.00	259.90
975.29	260.80
975.59	258.30
975.88	257.70
976.17	258.30
976.46	256.50
976.75	252.30
977.05	252.90
977.34	252.70
977.63	252.60
977.92	252.50
978.21	250.60
978.51	252.40
978.80	248.10
979.09	246.70
979.38	244.10
979.67	243.20
979.96	244.10
980.25	244.10
980.55	243.80
980.84	244.70
981.13	240.50
981.42	242.70
981.71	239.80
982.00	240.50
982.29	239.60
982.58	236.50
982.87	235.20
983.17	236.10
983.46	235.30
983.75	233.40
984.04	233.50
984.33	232.60
984.62	231.00
984.91	229.30
985.20	229.60
985.49	228.30
985.78	230.00
986.07	230.60
986.36	226.60
986.65	225.20
986.94	226.30
987.23	225.30
987.52	223.50
987.81	223.40
988.10	221.70
988.39	219.90
988.68	218.60
988.97	220.60
989.26	222.70
989.55	218.80
989.84	218.50
990.13	217.80
990.42	217.70
990.71	215.80
990.99	215.40
991.28	215.70
991.57	212.60
991.86	211.40
992.15	210.90
992.44	210.00
992.73	210.70
993.02	210.90
993.31	208.40
993.60	207.50
993.88	209.60
994.17	208.90
994.46	210.00
994.75	209.40
995.04	206.30
995.33	206.80
995.62	204.10
995.90	205.40
996.19	204.00
996.48	203.30
996.77	202.10
997.06	204.10
997.34	201.80
997.63	201.70
997.92	199.30
998.21	200.20
998.50	199.50
998.78	198.50
999.07	198.70
999.36	199.40
999.65	198.00
999.93	193.80
1000.22	193.60
1000.51	195.00
1000.80	194.50
1001.08	194.00
1001.37	194.00
1001.66	194.50
1001.94	192.50
1002.23	192.60
1002.52	191.40
1002.81	191.20
1003.09	191.80
1003.38	188.40
1003.67	190.30
1003.95	188.50
1004.24	187.80
1004.53	187.20
1004.81	188.40
1005.10	188.40
1005.39	187.40
1005.67	184.70
1005.96	186.10
1006.24	186.40
1006.53	185.00
1006.82	185.80
1007.10	185.70
1007.39	182.90
1007.67	182.20
1007.96	182.10
1008.25	182.00
1008.53	181.10
1008.82	181.30
1009.10	179.20
1009.39	178.90
1009.68	180.00
1009.96	179.40
1010.25	179.10
1010.53	178.30
1010.82	179.00
1011.10	178.60
1011.39	178.70
1011.67	176.60
1011.96	177.20
1012.24	177.50
1012.53	175.80
1012.81	177.30
1013.10	176.00
1013.38	177.30
1013.67	176.10
1013.95	175.40
1014.24	175.10
1014.52	175.00
1014.81	172.50
1015.09	173.70
1015.37	173.00
1015.66	171.10
1015.94	172.10
1016.23	173.10
1016.51	171.40
1016.80	171.60
1017.08	170.50
1017.36	171.70
1017.65	170.80
1017.93	171.10
1018.22	170.10
1018.50	170.20
1018.78	169.80
1019.07	168.70
1019.35	169.40
1019.63	168.70
1019.92	166.00
1020.20	169.40
1020.48	166.50
1020.77	168.00
1021.05	166.40
1021.33	166.70
1021.62	166.30
1021.90	165.10
1022.18	165.90
>>>>>End Processed Spectral Data<<<<<
