SpectraSuite Data File
++++++++++++++++++++++++++++++++++++
Date: Mon Nov 14 17:00:38 GMT 2022
User: sophysics
Dark Spectrum Present: No
Reference Spectrum Present: No
Number of Sampled Component Spectra: 1
Spectrometers: USB2G15921
Integration Time (usec): 10000 (USB2G15921)
Spectra Averaged: 10 (USB2G15921)
Boxcar Smoothing: 0 (USB2G15921)
Correct for Electrical Dark: No (USB2G15921)
Strobe/Lamp Enabled: No (USB2G15921)
Correct for Detector Non-linearity: No (USB2G15921)
Correct for Stray Light: No (USB2G15921)
Number of Pixels in Processed Spectrum: 2048
>>>>>Begin Processed Spectral Data<<<<<
339.16	0.00
339.53	126.20
339.91	127.50
340.28	126.60
340.66	128.60
341.03	130.00
341.41	130.20
341.78	130.30
342.16	130.80
342.54	133.20
342.91	132.60
343.29	132.60
343.66	133.20
344.04	134.40
344.41	132.80
344.79	133.40
345.16	132.90
345.54	133.80
345.91	133.30
346.29	132.00
346.66	133.60
347.04	132.30
347.41	132.00
347.79	132.90
348.16	133.30
348.54	135.80
348.91	137.80
349.29	136.20
349.66	136.70
350.04	136.80
350.41	136.00
350.79	137.50
351.16	138.00
351.54	137.80
351.91	139.00
352.29	138.50
352.66	136.50
353.04	137.60
353.41	139.00
353.78	138.20
354.16	140.30
354.53	139.30
354.91	139.50
355.28	141.80
355.66	140.80
356.03	138.70
356.40	139.80
356.78	140.90
357.15	139.60
357.53	140.30
357.90	140.80
358.28	141.60
358.65	141.50
359.02	142.00
359.40	140.90
359.77	143.30
360.15	143.30
360.52	143.30
360.89	144.40
361.27	144.30
361.64	142.60
362.01	143.40
362.39	143.30
362.76	144.40
363.14	144.10
363.51	145.70
363.88	145.30
364.26	147.50
364.63	146.40
365.00	146.30
365.38	146.80
365.75	147.60
366.12	146.60
366.50	147.60
366.87	149.10
367.24	149.70
367.62	151.50
367.99	149.90
368.36	151.10
368.74	151.50
369.11	150.80
369.48	150.80
369.86	152.60
370.23	153.60
370.60	155.40
370.97	154.00
371.35	153.90
371.72	155.10
372.09	155.10
372.47	157.60
372.84	158.10
373.21	159.30
373.58	158.40
373.96	157.50
374.33	159.80
374.70	160.90
375.07	158.70
375.45	160.10
375.82	159.10
376.19	161.20
376.56	163.20
376.94	166.10
377.31	165.70
377.68	167.30
378.05	168.60
378.43	166.00
378.80	164.30
379.17	168.60
379.54	169.40
379.92	170.40
380.29	170.60
380.66	173.30
381.03	173.90
381.40	174.80
381.78	176.30
382.15	177.40
382.52	176.40
382.89	179.60
383.26	180.50
383.63	179.80
384.01	183.60
384.38	183.80
384.75	186.90
385.12	188.50
385.49	189.10
385.86	190.90
386.24	192.70
386.61	193.50
386.98	195.60
387.35	196.80
387.72	197.60
388.09	200.10
388.46	200.70
388.84	202.40
389.21	204.80
389.58	204.00
389.95	207.60
390.32	212.00
390.69	212.80
391.06	211.40
391.43	214.50
391.81	216.70
392.18	218.50
392.55	221.10
392.92	220.00
393.29	225.30
393.66	225.70
394.03	225.90
394.40	227.50
394.77	229.30
395.14	231.10
395.51	234.50
395.88	236.80
396.25	238.70
396.63	240.40
397.00	242.40
397.37	245.50
397.74	251.20
398.11	248.60
398.48	252.20
398.85	256.10
399.22	257.20
399.59	257.60
399.96	264.50
400.33	266.30
400.70	267.50
401.07	269.30
401.44	273.60
401.81	277.10
402.18	278.80
402.55	276.60
402.92	282.50
403.29	287.20
403.66	286.70
404.03	291.20
404.40	294.10
404.77	297.10
405.14	304.30
405.51	304.60
405.88	305.30
406.25	310.90
406.62	315.90
406.99	316.10
407.36	323.90
407.73	319.50
408.10	323.70
408.47	329.20
408.84	330.70
409.20	335.90
409.57	336.70
409.94	344.40
410.31	341.00
410.68	347.00
411.05	346.50
411.42	355.00
411.79	358.60
412.16	361.30
412.53	365.80
412.90	368.30
413.27	361.60
413.63	378.40
414.00	377.30
414.37	381.20
414.74	378.60
415.11	388.20
415.48	385.70
415.85	393.80
416.22	394.20
416.59	397.70
416.95	395.90
417.32	407.40
417.69	404.30
418.06	414.10
418.43	416.10
418.80	409.50
419.17	427.10
419.53	413.40
419.90	425.20
420.27	436.60
420.64	430.80
421.01	437.70
421.38	433.80
421.74	439.90
422.11	448.40
422.48	463.80
422.85	454.70
423.22	449.00
423.58	472.10
423.95	459.40
424.32	474.30
424.69	479.50
425.06	475.30
425.42	484.00
425.79	491.00
426.16	498.80
426.53	503.00
426.89	491.60
427.26	508.20
427.63	505.30
428.00	509.50
428.36	515.80
428.73	514.20
429.10	533.10
429.47	541.00
429.83	545.20
430.20	542.50
430.57	553.80
430.94	553.90
431.30	557.90
431.67	579.30
432.04	558.70
432.41	571.40
432.77	568.50
433.14	584.00
433.51	595.30
433.87	582.20
434.24	590.10
434.61	591.00
434.97	598.00
435.34	610.00
435.71	618.30
436.08	618.20
436.44	624.10
436.81	629.30
437.18	632.00
437.54	634.60
437.91	638.20
438.28	636.30
438.64	647.50
439.01	662.00
439.38	664.80
439.74	662.90
440.11	652.90
440.47	675.90
440.84	676.60
441.21	675.80
441.57	689.40
441.94	688.30
442.31	679.50
442.67	682.20
443.04	704.90
443.40	700.40
443.77	688.80
444.14	691.50
444.50	720.70
444.87	712.40
445.23	708.30
445.60	719.60
445.97	716.20
446.33	723.40
446.70	732.80
447.06	719.90
447.43	732.60
447.79	715.90
448.16	748.30
448.53	748.00
448.89	757.70
449.26	753.20
449.62	735.40
449.99	764.70
450.35	760.10
450.72	768.70
451.08	764.60
451.45	759.20
451.81	789.30
452.18	787.50
452.54	792.30
452.91	788.40
453.27	799.90
453.64	804.40
454.00	799.10
454.37	790.40
454.73	836.00
455.10	820.20
455.46	836.50
455.83	847.60
456.19	847.80
456.56	845.80
456.92	855.60
457.29	868.30
457.65	851.60
458.02	875.80
458.38	883.40
458.75	883.60
459.11	881.00
459.48	893.80
459.84	897.30
460.20	912.30
460.57	906.50
460.93	905.20
461.30	922.20
461.66	925.20
462.03	934.40
462.39	947.10
462.75	964.80
463.12	962.40
463.48	966.20
463.85	961.80
464.21	993.50
464.57	975.60
464.94	1000.00
465.30	1000.30
465.67	997.70
466.03	987.20
466.39	998.50
466.76	1011.10
467.12	1020.40
467.49	1013.00
467.85	1037.90
468.21	1035.70
468.58	1051.90
468.94	1065.00
469.30	1059.60
469.67	1047.70
470.03	1062.50
470.39	1068.50
470.76	1071.40
471.12	1088.60
471.48	1102.80
471.85	1088.50
472.21	1093.40
472.57	1111.90
472.94	1119.80
473.30	1122.10
473.66	1115.10
474.03	1131.40
474.39	1141.00
474.75	1147.80
475.11	1141.30
475.48	1168.20
475.84	1178.70
476.20	1180.30
476.57	1192.70
476.93	1203.20
477.29	1208.40
477.65	1218.70
478.02	1236.90
478.38	1253.80
478.74	1249.50
479.10	1261.10
479.47	1268.50
479.83	1285.20
480.19	1293.10
480.55	1306.90
480.92	1320.40
481.28	1340.00
481.64	1345.80
482.00	1366.80
482.36	1377.70
482.73	1393.20
483.09	1410.80
483.45	1429.40
483.81	1443.30
484.17	1454.40
484.54	1469.50
484.90	1485.60
485.26	1500.10
485.62	1508.90
485.98	1519.30
486.35	1546.10
486.71	1565.70
487.07	1579.00
487.43	1582.30
487.79	1619.70
488.15	1636.60
488.52	1641.90
488.88	1661.50
489.24	1654.40
489.60	1676.40
489.96	1698.00
490.32	1722.10
490.68	1733.80
491.04	1756.60
491.41	1768.90
491.77	1774.60
492.13	1785.20
492.49	1816.10
492.85	1810.60
493.21	1842.60
493.57	1845.70
493.93	1855.20
494.29	1883.70
494.65	1899.60
495.02	1907.50
495.38	1923.50
495.74	1932.90
496.10	1952.10
496.46	1957.10
496.82	1978.00
497.18	1985.70
497.54	2003.50
497.90	2007.40
498.26	2021.50
498.62	2034.20
498.98	2043.90
499.34	2047.40
499.70	2055.80
500.06	2065.60
500.42	2075.60
500.78	2099.00
501.14	2114.10
501.50	2112.30
501.86	2133.00
502.22	2130.80
502.58	2142.50
502.94	2146.80
503.30	2155.50
503.66	2145.40
504.02	2169.30
504.38	2180.70
504.74	2181.20
505.10	2196.90
505.46	2194.60
505.82	2211.30
506.18	2213.20
506.54	2231.40
506.90	2229.60
507.26	2234.10
507.62	2239.10
507.98	2242.00
508.34	2243.10
508.70	2246.80
509.06	2258.80
509.42	2241.90
509.78	2268.50
510.14	2260.40
510.50	2272.50
510.85	2270.70
511.21	2270.00
511.57	2276.70
511.93	2301.20
512.29	2291.60
512.65	2291.30
513.01	2295.00
513.37	2298.90
513.73	2305.30
514.09	2316.50
514.44	2343.10
514.80	2319.80
515.16	2306.80
515.52	2315.30
515.88	2344.30
516.24	2322.60
516.60	2331.20
516.95	2324.30
517.31	2339.40
517.67	2353.30
518.03	2347.70
518.39	2359.20
518.75	2356.20
519.10	2356.20
519.46	2381.10
519.82	2371.40
520.18	2387.00
520.54	2390.20
520.90	2395.90
521.25	2381.70
521.61	2402.70
521.97	2408.70
522.33	2414.80
522.69	2431.20
523.04	2429.10
523.40	2432.30
523.76	2449.70
524.12	2469.90
524.47	2463.10
524.83	2454.50
525.19	2475.00
525.55	2463.10
525.90	2476.80
526.26	2479.00
526.62	2494.60
526.98	2498.90
527.33	2512.30
527.69	2507.30
528.05	2539.80
528.41	2538.80
528.76	2541.70
529.12	2549.90
529.48	2568.00
529.83	2565.00
530.19	2577.30
530.55	2593.50
530.91	2595.60
531.26	2615.70
531.62	2614.50
531.98	2639.10
532.33	2626.10
532.69	2645.10
533.05	2682.60
533.40	2681.70
533.76	2684.70
534.12	2712.70
534.47	2711.80
534.83	2725.60
535.19	2747.20
535.54	2761.00
535.90	2765.20
536.26	2782.90
536.61	2782.50
536.97	2792.10
537.32	2806.40
537.68	2835.30
538.04	2854.80
538.39	2858.20
538.75	2873.50
539.11	2865.30
539.46	2894.50
539.82	2881.10
540.17	2916.50
540.53	2933.70
540.88	2931.40
541.24	2927.40
541.60	2944.90
541.95	2954.40
542.31	2961.40
542.66	2996.30
543.02	3000.10
543.37	3004.00
543.73	3004.00
544.09	3017.00
544.44	3025.20
544.80	3031.10
545.15	3046.70
545.51	3066.10
545.86	3085.60
546.22	3083.20
546.57	3096.90
546.93	3090.70
547.28	3116.00
547.64	3125.60
547.99	3128.50
548.35	3125.00
548.70	3105.10
549.06	3146.20
549.41	3165.00
549.77	3137.30
550.12	3162.20
550.48	3163.10
550.83	3138.10
551.19	3149.60
551.54	3154.30
551.90	3154.70
552.25	3170.80
552.61	3176.70
552.96	3175.70
553.32	3182.20
553.67	3180.40
554.02	3189.10
554.38	3180.90
554.73	3193.20
555.09	3184.20
555.44	3187.10
555.80	3200.20
556.15	3201.30
556.50	3190.70
556.86	3179.40
557.21	3174.60
557.57	3203.30
557.92	3193.00
558.27	3203.50
558.63	3203.40
558.98	3196.20
559.34	3202.70
559.69	3200.80
560.04	3198.30
560.40	3199.60
560.75	3202.40
561.10	3218.40
561.46	3192.50
561.81	3200.40
562.16	3204.00
562.52	3204.90
562.87	3222.50
563.23	3228.50
563.58	3240.20
563.93	3216.50
564.28	3212.40
564.64	3230.60
564.99	3222.60
565.34	3241.30
565.70	3218.30
566.05	3230.90
566.40	3220.70
566.76	3228.90
567.11	3225.40
567.46	3230.40
567.82	3236.00
568.17	3222.50
568.52	3251.60
568.87	3233.00
569.23	3255.70
569.58	3250.60
569.93	3272.00
570.28	3257.30
570.64	3276.20
570.99	3279.20
571.34	3280.80
571.69	3267.10
572.05	3284.70
572.40	3277.20
572.75	3280.00
573.10	3301.40
573.46	3319.90
573.81	3322.80
574.16	3319.80
574.51	3314.60
574.86	3328.80
575.22	3330.40
575.57	3343.30
575.92	3344.90
576.27	3357.30
576.62	3352.10
576.97	3382.10
577.33	3402.50
577.68	3344.00
578.03	3398.90
578.38	3401.60
578.73	3399.70
579.08	3419.00
579.44	3432.50
579.79	3409.80
580.14	3410.80
580.49	3419.60
580.84	3438.10
581.19	3436.10
581.54	3450.10
581.90	3461.80
582.25	3481.70
582.60	3487.10
582.95	3464.40
583.30	3470.10
583.65	3520.20
584.00	3514.20
584.35	3531.60
584.70	3544.00
585.05	3554.20
585.41	3544.60
585.76	3540.50
586.11	3577.10
586.46	3573.30
586.81	3586.50
587.16	3604.30
587.51	3618.30
587.86	3614.50
588.21	3631.90
588.56	3639.90
588.91	3620.80
589.26	3614.80
589.61	3634.00
589.96	3641.00
590.31	3667.30
590.66	3688.10
591.01	3684.40
591.36	3706.10
591.71	3682.20
592.06	3707.80
592.41	3684.60
592.76	3701.20
593.11	3713.60
593.46	3722.30
593.81	3720.60
594.16	3699.90
594.51	3724.50
594.86	3711.30
595.21	3724.70
595.56	3721.10
595.91	3717.30
596.26	3735.20
596.61	3735.90
596.96	3739.20
597.31	3762.40
597.66	3727.10
598.01	3736.90
598.36	3760.90
598.71	3747.10
599.05	3728.90
599.40	3742.00
599.75	3760.70
600.10	3754.80
600.45	3751.70
600.80	3716.40
601.15	3737.70
601.50	3746.60
601.85	3735.10
602.20	3724.50
602.54	3734.60
602.89	3735.20
603.24	3728.70
603.59	3731.30
603.94	3734.60
604.29	3747.80
604.64	3719.20
604.98	3709.10
605.33	3695.90
605.68	3702.90
606.03	3694.00
606.38	3687.20
606.73	3684.70
607.07	3702.00
607.42	3685.50
607.77	3663.60
608.12	3652.70
608.47	3678.10
608.82	3671.60
609.16	3660.40
609.51	3648.60
609.86	3639.80
610.21	3659.40
610.55	3647.70
610.90	3612.20
611.25	3616.20
611.60	3628.40
611.95	3628.70
612.29	3622.60
612.64	3619.20
612.99	3616.80
613.34	3636.90
613.68	3634.90
614.03	3606.50
614.38	3577.90
614.73	3557.80
615.07	3567.70
615.42	3567.40
615.77	3590.70
616.11	3566.30
616.46	3572.00
616.81	3575.10
617.16	3558.00
617.50	3529.00
617.85	3550.00
618.20	3540.40
618.54	3545.30
618.89	3545.80
619.24	3556.60
619.58	3544.60
619.93	3544.40
620.28	3552.20
620.62	3518.30
620.97	3508.20
621.32	3509.90
621.66	3504.10
622.01	3503.30
622.36	3515.50
622.70	3546.20
623.05	3528.80
623.39	3519.80
623.74	3500.70
624.09	3525.10
624.43	3522.20
624.78	3517.70
625.13	3515.50
625.47	3525.30
625.82	3500.90
626.16	3503.90
626.51	3519.40
626.85	3510.70
627.20	3505.80
627.55	3506.10
627.89	3502.60
628.24	3487.40
628.58	3486.80
628.93	3525.20
629.27	3499.60
629.62	3505.40
629.97	3505.80
630.31	3505.50
630.66	3504.60
631.00	3500.40
631.35	3491.70
631.69	3499.20
632.04	3503.10
632.38	3490.10
632.73	3511.90
633.07	3505.50
633.42	3493.30
633.76	3500.60
634.11	3518.70
634.45	3532.40
634.80	3515.60
635.14	3503.80
635.49	3507.30
635.83	3523.60
636.18	3510.70
636.52	3533.90
636.87	3527.90
637.21	3524.70
637.55	3517.90
637.90	3529.20
638.24	3534.40
638.59	3508.20
638.93	3537.90
639.28	3523.10
639.62	3505.10
639.96	3538.00
640.31	3530.40
640.65	3548.00
641.00	3529.10
641.34	3533.80
641.69	3501.50
642.03	3505.40
642.37	3527.30
642.72	3525.80
643.06	3572.80
643.40	3556.90
643.75	3547.90
644.09	3544.00
644.44	3544.40
644.78	3534.40
645.12	3511.90
645.47	3503.80
645.81	3481.30
646.15	3512.30
646.50	3524.80
646.84	3534.70
647.18	3531.20
647.53	3558.80
647.87	3515.00
648.21	3527.00
648.56	3507.70
648.90	3513.80
649.24	3558.20
649.59	3522.10
649.93	3518.30
650.27	3519.50
650.61	3512.50
650.96	3516.60
651.30	3527.10
651.64	3519.90
651.98	3512.40
652.33	3499.50
652.67	3470.40
653.01	3497.10
653.36	3495.60
653.70	3484.00
654.04	3463.00
654.38	3473.80
654.72	3424.80
655.07	3437.30
655.41	3446.00
655.75	3434.30
656.09	3446.80
656.44	3434.40
656.78	3436.60
657.12	3438.50
657.46	3403.10
657.80	3407.70
658.15	3403.90
658.49	3393.90
658.83	3389.40
659.17	3387.70
659.51	3417.70
659.86	3380.10
660.20	3371.60
660.54	3341.60
660.88	3366.30
661.22	3356.00
661.56	3320.80
661.90	3305.00
662.25	3303.10
662.59	3322.80
662.93	3312.70
663.27	3297.90
663.61	3287.90
663.95	3297.10
664.29	3293.30
664.63	3273.50
664.98	3270.20
665.32	3263.70
665.66	3252.60
666.00	3232.30
666.34	3220.80
666.68	3203.30
667.02	3194.70
667.36	3204.30
667.70	3210.70
668.04	3201.30
668.38	3201.80
668.72	3203.90
669.06	3177.10
669.40	3180.40
669.75	3159.00
670.09	3132.50
670.43	3137.50
670.77	3150.20
671.11	3151.00
671.45	3129.10
671.79	3111.30
672.13	3099.90
672.47	3071.40
672.81	3065.60
673.15	3051.40
673.49	3057.90
673.83	3044.60
674.17	3040.70
674.51	3056.30
674.85	3016.20
675.19	3002.90
675.53	3019.80
675.87	3001.70
676.20	2994.70
676.54	3004.10
676.88	2973.40
677.22	2978.50
677.56	2988.80
677.90	2990.80
678.24	2962.80
678.58	2946.30
678.92	2935.40
679.26	2935.00
679.60	2914.00
679.94	2910.60
680.28	2922.20
680.62	2929.00
680.95	2885.90
681.29	2888.30
681.63	2889.10
681.97	2884.70
682.31	2888.20
682.65	2865.00
682.99	2851.40
683.33	2853.60
683.66	2851.60
684.00	2850.90
684.34	2838.40
684.68	2848.00
685.02	2815.10
685.36	2812.70
685.70	2792.70
686.03	2803.10
686.37	2800.80
686.71	2760.60
687.05	2784.60
687.39	2799.30
687.72	2793.00
688.06	2791.70
688.40	2780.50
688.74	2781.20
689.08	2748.20
689.41	2775.80
689.75	2774.50
690.09	2765.40
690.43	2765.10
690.77	2753.20
691.10	2754.00
691.44	2763.70
691.78	2759.00
692.12	2747.50
692.45	2759.20
692.79	2737.40
693.13	2729.20
693.46	2732.10
693.80	2702.00
694.14	2712.90
694.48	2708.40
694.81	2712.60
695.15	2727.10
695.49	2714.10
695.82	2673.10
696.16	2701.60
696.50	2702.70
696.84	2678.90
697.17	2700.50
697.51	2727.40
697.85	2705.70
698.18	2707.70
698.52	2682.70
698.86	2708.20
699.19	2687.00
699.53	2680.60
699.87	2690.30
700.20	2680.90
700.54	2672.00
700.87	2687.80
701.21	2668.00
701.55	2678.00
701.88	2685.40
702.22	2657.80
702.56	2678.20
702.89	2643.50
703.23	2661.80
703.56	2675.30
703.90	2675.60
704.23	2669.40
704.57	2667.30
704.91	2694.80
705.24	2694.00
705.58	2696.70
705.91	2686.30
706.25	2677.80
706.58	2653.40
706.92	2656.40
707.26	2692.50
707.59	2679.90
707.93	2665.50
708.26	2644.60
708.60	2637.50
708.93	2659.60
709.27	2648.80
709.60	2633.80
709.94	2632.60
710.27	2618.30
710.61	2614.40
710.94	2635.30
711.28	2646.50
711.61	2633.30
711.95	2624.90
712.28	2643.80
712.62	2626.70
712.95	2631.00
713.29	2652.20
713.62	2618.60
713.96	2621.20
714.29	2612.80
714.62	2596.90
714.96	2601.10
715.29	2595.60
715.63	2604.20
715.96	2615.80
716.30	2630.90
716.63	2625.20
716.96	2606.10
717.30	2594.70
717.63	2591.30
717.97	2608.90
718.30	2592.80
718.63	2581.90
718.97	2576.40
719.30	2585.80
719.64	2563.60
719.97	2563.50
720.30	2555.50
720.64	2555.30
720.97	2546.30
721.30	2549.90
721.64	2534.00
721.97	2534.60
722.30	2514.50
722.64	2512.60
722.97	2506.60
723.30	2495.40
723.64	2506.90
723.97	2521.40
724.30	2523.70
724.64	2491.30
724.97	2477.60
725.30	2465.90
725.64	2466.40
725.97	2466.60
726.30	2483.80
726.63	2447.40
726.97	2466.80
727.30	2478.90
727.63	2471.40
727.97	2464.20
728.30	2453.80
728.63	2460.20
728.96	2426.60
729.30	2409.10
729.63	2394.10
729.96	2413.90
730.29	2425.20
730.62	2403.60
730.96	2353.60
731.29	2378.70
731.62	2348.70
731.95	2363.60
732.28	2343.50
732.62	2335.10
732.95	2331.30
733.28	2298.70
733.61	2289.50
733.94	2307.60
734.28	2314.30
734.61	2301.90
734.94	2281.50
735.27	2243.50
735.60	2224.40
735.93	2245.00
736.27	2237.90
736.60	2234.00
736.93	2230.90
737.26	2222.40
737.59	2218.70
737.92	2196.40
738.25	2202.90
738.58	2188.40
738.92	2174.10
739.25	2160.20
739.58	2169.60
739.91	2154.20
740.24	2139.10
740.57	2146.50
740.90	2140.70
741.23	2109.70
741.56	2122.70
741.89	2130.30
742.22	2122.60
742.55	2129.00
742.89	2088.00
743.22	2069.00
743.55	2055.60
743.88	2058.70
744.21	2056.60
744.54	2044.60
744.87	2023.30
745.20	2031.40
745.53	2009.50
745.86	1990.30
746.19	1977.10
746.52	1986.80
746.85	1981.00
747.18	1969.30
747.51	1957.70
747.84	1952.30
748.17	1961.20
748.50	1944.10
748.83	1924.50
749.16	1908.90
749.49	1897.40
749.82	1916.30
750.14	1926.20
750.47	1907.80
750.80	1890.90
751.13	1884.60
751.46	1872.00
751.79	1880.10
752.12	1871.60
752.45	1851.70
752.78	1854.10
753.11	1861.80
753.44	1840.30
753.77	1825.80
754.10	1823.00
754.42	1812.60
754.75	1807.70
755.08	1795.40
755.41	1788.30
755.74	1778.20
756.07	1785.30
756.40	1790.30
756.72	1778.70
757.05	1750.00
757.38	1730.00
757.71	1735.20
758.04	1737.00
758.37	1731.50
758.70	1726.20
759.02	1713.90
759.35	1690.70
759.68	1685.00
760.01	1689.80
760.34	1689.10
760.66	1676.10
760.99	1663.40
761.32	1681.30
761.65	1674.50
761.98	1666.10
762.30	1664.10
762.63	1654.50
762.96	1662.30
763.29	1643.10
763.61	1638.00
763.94	1626.00
764.27	1619.80
764.60	1611.90
764.92	1588.90
765.25	1610.90
765.58	1595.90
765.91	1591.30
766.23	1594.90
766.56	1595.90
766.89	1607.10
767.21	1584.40
767.54	1565.20
767.87	1587.70
768.19	1586.50
768.52	1588.10
768.85	1577.20
769.17	1577.10
769.50	1551.20
769.83	1527.80
770.15	1531.90
770.48	1551.00
770.81	1550.30
771.13	1530.40
771.46	1550.50
771.79	1535.70
772.11	1529.70
772.44	1505.20
772.77	1494.00
773.09	1493.70
773.42	1473.40
773.74	1495.90
774.07	1485.80
774.40	1498.10
774.72	1505.50
775.05	1502.60
775.37	1491.80
775.70	1481.50
776.03	1464.70
776.35	1455.50
776.68	1464.10
777.00	1471.30
777.33	1456.20
777.65	1445.70
777.98	1460.40
778.30	1461.40
778.63	1424.40
778.96	1426.00
779.28	1414.40
779.61	1405.90
779.93	1416.60
780.26	1430.60
780.58	1434.60
780.91	1414.20
781.23	1410.60
781.56	1398.70
781.88	1419.30
782.21	1425.60
782.53	1418.20
782.86	1414.50
783.18	1402.00
783.50	1383.20
783.83	1391.40
784.15	1371.50
784.48	1376.90
784.80	1379.70
785.13	1382.30
785.45	1379.50
785.78	1365.10
786.10	1374.90
786.42	1367.60
786.75	1353.10
787.07	1350.30
787.40	1339.90
787.72	1349.60
788.04	1325.90
788.37	1317.10
788.69	1312.30
789.02	1313.70
789.34	1322.90
789.66	1332.60
789.99	1337.80
790.31	1320.20
790.63	1332.10
790.96	1317.80
791.28	1328.60
791.61	1317.00
791.93	1319.30
792.25	1310.50
792.58	1283.10
792.90	1292.50
793.22	1309.40
793.54	1297.60
793.87	1289.90
794.19	1291.30
794.51	1290.90
794.84	1296.40
795.16	1294.70
795.48	1295.00
795.81	1301.50
796.13	1315.90
796.45	1321.00
796.77	1336.50
797.10	1328.80
797.42	1334.80
797.74	1314.00
798.06	1311.10
798.39	1313.40
798.71	1325.70
799.03	1311.90
799.35	1318.00
799.67	1336.40
800.00	1339.80
800.32	1356.10
800.64	1351.70
800.96	1348.40
801.29	1343.80
801.61	1347.70
801.93	1341.70
802.25	1341.80
802.57	1344.40
802.89	1358.70
803.22	1354.10
803.54	1366.50
803.86	1370.10
804.18	1358.40
804.50	1359.10
804.82	1355.60
805.15	1354.20
805.47	1358.20
805.79	1363.20
806.11	1372.80
806.43	1363.70
806.75	1384.40
807.07	1381.80
807.39	1376.90
807.71	1368.60
808.04	1364.60
808.36	1362.40
808.68	1358.80
809.00	1371.60
809.32	1363.50
809.64	1368.50
809.96	1364.80
810.28	1363.50
810.60	1366.70
810.92	1365.60
811.24	1374.10
811.56	1378.10
811.88	1383.90
812.20	1361.90
812.52	1365.80
812.84	1358.80
813.16	1354.20
813.48	1344.50
813.80	1366.40
814.12	1363.10
814.44	1354.80
814.76	1344.70
815.08	1346.00
815.40	1340.90
815.72	1341.80
816.04	1322.80
816.36	1321.80
816.68	1337.30
817.00	1345.40
817.32	1334.60
817.64	1331.20
817.96	1330.40
818.28	1312.40
818.60	1325.20
818.92	1327.50
819.24	1314.00
819.56	1314.30
819.88	1303.50
820.19	1312.50
820.51	1298.30
820.83	1311.90
821.15	1316.10
821.47	1312.40
821.79	1314.00
822.11	1318.10
822.43	1307.00
822.75	1312.20
823.06	1305.90
823.38	1294.30
823.70	1277.40
824.02	1281.20
824.34	1287.30
824.66	1287.00
824.97	1265.20
825.29	1259.40
825.61	1254.00
825.93	1254.60
826.25	1240.90
826.57	1243.50
826.88	1239.50
827.20	1234.90
827.52	1245.30
827.84	1227.80
828.15	1233.20
828.47	1228.10
828.79	1221.50
829.11	1229.10
829.43	1218.60
829.74	1211.60
830.06	1221.90
830.38	1212.30
830.70	1212.80
831.01	1206.90
831.33	1189.50
831.65	1202.20
831.96	1206.20
832.28	1196.20
832.60	1193.10
832.92	1173.10
833.23	1162.10
833.55	1161.10
833.87	1157.70
834.18	1159.10
834.50	1146.30
834.82	1161.00
835.13	1151.90
835.45	1151.50
835.77	1147.30
836.08	1151.20
836.40	1128.30
836.72	1127.80
837.03	1121.90
837.35	1122.60
837.67	1117.90
837.98	1107.80
838.30	1108.30
838.61	1123.70
838.93	1088.50
839.25	1089.40
839.56	1087.40
839.88	1086.20
840.19	1090.00
840.51	1075.60
840.83	1072.40
841.14	1070.30
841.46	1067.80
841.77	1065.60
842.09	1059.10
842.40	1049.10
842.72	1038.60
843.04	1030.10
843.35	1037.70
843.67	1034.30
843.98	1031.20
844.30	1038.90
844.61	1032.90
844.93	1031.00
845.24	1016.70
845.56	1010.40
845.87	1011.50
846.19	993.40
846.50	982.30
846.82	973.90
847.13	988.10
847.45	977.40
847.76	984.30
848.08	986.80
848.39	981.70
848.70	980.50
849.02	971.40
849.33	975.80
849.65	964.30
849.96	952.90
850.28	947.20
850.59	946.20
850.91	935.80
851.22	942.20
851.53	933.70
851.85	939.60
852.16	937.60
852.48	924.90
852.79	921.70
853.10	914.60
853.42	917.10
853.73	901.20
854.04	902.10
854.36	904.90
854.67	913.30
854.99	914.30
855.30	905.60
855.61	888.50
855.93	875.10
856.24	868.40
856.55	862.50
856.87	859.50
857.18	869.00
857.49	868.70
857.80	870.20
858.12	870.80
858.43	850.30
858.74	850.30
859.06	844.50
859.37	845.30
859.68	844.30
859.99	843.20
860.31	845.60
860.62	843.90
860.93	834.10
861.24	825.30
861.56	824.70
861.87	835.80
862.18	827.90
862.49	827.40
862.81	810.50
863.12	805.60
863.43	797.40
863.74	792.70
864.05	801.20
864.37	799.90
864.68	787.50
864.99	785.50
865.30	785.30
865.61	781.20
865.93	778.70
866.24	767.40
866.55	777.10
866.86	767.90
867.17	767.70
867.48	763.30
867.80	761.20
868.11	756.20
868.42	759.90
868.73	756.60
869.04	753.70
869.35	746.10
869.66	744.50
869.97	741.70
870.28	745.80
870.60	740.40
870.91	742.70
871.22	738.90
871.53	731.60
871.84	726.40
872.15	723.30
872.46	709.70
872.77	711.50
873.08	721.70
873.39	716.80
873.70	701.00
874.01	707.90
874.32	700.20
874.63	686.80
874.94	688.20
875.25	687.20
875.56	679.80
875.87	682.40
876.18	680.70
876.49	684.00
876.80	677.30
877.11	674.00
877.42	676.80
877.73	667.20
878.04	667.10
878.35	662.70
878.66	672.10
878.97	670.90
879.28	676.90
879.59	664.90
879.90	659.50
880.21	649.70
880.52	642.20
880.83	653.60
881.14	645.20
881.45	640.00
881.76	649.20
882.06	648.80
882.37	649.60
882.68	652.30
882.99	650.90
883.30	656.80
883.61	646.70
883.92	642.80
884.23	643.80
884.54	648.30
884.84	648.80
885.15	656.50
885.46	647.50
885.77	647.50
886.08	651.90
886.39	643.70
886.69	657.00
887.00	650.00
887.31	651.90
887.62	644.80
887.93	643.40
888.23	641.30
888.54	652.20
888.85	644.60
889.16	649.30
889.47	647.40
889.77	648.30
890.08	648.70
890.39	644.40
890.70	649.30
891.00	653.20
891.31	642.20
891.62	651.00
891.93	650.00
892.23	649.60
892.54	648.40
892.85	654.40
893.16	649.70
893.46	644.50
893.77	651.00
894.08	638.20
894.38	648.10
894.69	654.60
895.00	662.00
895.30	659.90
895.61	661.10
895.92	654.10
896.22	650.50
896.53	652.30
896.84	652.00
897.14	653.10
897.45	648.30
897.76	646.20
898.06	651.90
898.37	644.20
898.68	652.10
898.98	646.20
899.29	646.70
899.59	651.90
899.90	649.00
900.21	660.00
900.51	655.60
900.82	640.50
901.12	639.30
901.43	640.50
901.73	637.80
902.04	639.10
902.35	638.00
902.65	640.30
902.96	641.00
903.26	649.10
903.57	635.50
903.87	635.40
904.18	634.30
904.48	632.40
904.79	645.60
905.09	636.50
905.40	637.80
905.70	633.80
906.01	631.70
906.31	626.10
906.62	629.40
906.92	638.60
907.23	628.00
907.53	632.80
907.84	628.40
908.14	631.60
908.45	624.90
908.75	623.10
909.05	618.50
909.36	619.40
909.66	614.40
909.97	622.10
910.27	619.00
910.58	613.70
910.88	614.70
911.18	604.50
911.49	600.80
911.79	598.80
912.10	604.20
912.40	594.10
912.70	593.50
913.01	594.90
913.31	601.80
913.61	592.70
913.92	592.80
914.22	601.70
914.52	592.30
914.83	589.00
915.13	589.00
915.44	591.70
915.74	594.30
916.04	589.70
916.34	582.30
916.65	578.00
916.95	576.90
917.25	574.10
917.56	570.60
917.86	574.40
918.16	573.60
918.46	563.80
918.77	565.60
919.07	561.70
919.37	555.90
919.68	568.60
919.98	568.30
920.28	570.40
920.58	568.50
920.89	566.50
921.19	562.80
921.49	558.60
921.79	558.00
922.09	559.30
922.40	557.30
922.70	560.80
923.00	551.30
923.30	550.20
923.60	543.10
923.91	539.60
924.21	540.10
924.51	539.20
924.81	541.60
925.11	539.30
925.41	530.70
925.71	534.60
926.02	530.90
926.32	529.60
926.62	527.80
926.92	529.40
927.22	527.80
927.52	530.60
927.82	526.60
928.12	525.90
928.43	520.10
928.73	515.30
929.03	517.60
929.33	519.10
929.63	514.40
929.93	512.60
930.23	511.60
930.53	514.40
930.83	521.80
931.13	521.40
931.43	517.20
931.73	501.40
932.03	501.10
932.33	501.10
932.63	499.20
932.93	496.70
933.23	491.10
933.53	490.60
933.83	490.00
934.13	497.10
934.43	493.50
934.73	495.30
935.03	488.90
935.33	494.80
935.63	496.10
935.93	494.60
936.23	492.60
936.53	491.20
936.83	489.50
937.13	491.90
937.43	483.40
937.73	483.50
938.03	475.30
938.33	470.80
938.63	466.30
938.93	464.00
939.22	466.30
939.52	462.60
939.82	460.60
940.12	460.40
940.42	461.90
940.72	467.50
941.02	463.40
941.32	460.50
941.62	458.80
941.91	457.70
942.21	455.20
942.51	449.70
942.81	450.20
943.11	457.80
943.41	451.50
943.70	453.90
944.00	447.30
944.30	441.90
944.60	442.30
944.90	441.30
945.19	439.30
945.49	438.10
945.79	437.20
946.09	433.00
946.39	430.40
946.68	431.60
946.98	425.70
947.28	425.60
947.58	420.70
947.87	422.30
948.17	422.40
948.47	417.10
948.76	411.00
949.06	408.00
949.36	409.80
949.66	407.00
949.95	410.30
950.25	408.50
950.55	406.20
950.84	403.30
951.14	402.30
951.44	396.70
951.73	396.80
952.03	396.90
952.33	395.50
952.62	398.70
952.92	397.90
953.22	396.50
953.51	391.30
953.81	389.50
954.11	391.40
954.40	390.80
954.70	388.50
955.00	384.60
955.29	379.60
955.59	374.60
955.88	375.80
956.18	374.50
956.47	374.00
956.77	373.70
957.07	371.40
957.36	371.20
957.66	366.40
957.95	368.70
958.25	367.50
958.54	368.10
958.84	366.40
959.14	367.00
959.43	356.50
959.73	359.60
960.02	360.40
960.32	355.30
960.61	346.10
960.91	344.80
961.20	339.00
961.50	337.80
961.79	337.60
962.09	337.70
962.38	335.50
962.68	334.10
962.97	334.70
963.26	333.90
963.56	333.70
963.85	329.70
964.15	327.00
964.44	327.50
964.74	321.00
965.03	324.20
965.32	323.80
965.62	322.30
965.91	318.50
966.21	314.80
966.50	311.30
966.79	311.60
967.09	311.30
967.38	308.90
967.68	307.90
967.97	302.40
968.26	299.00
968.56	299.70
968.85	294.10
969.14	295.60
969.44	292.50
969.73	288.90
970.02	289.40
970.32	290.10
970.61	292.60
970.90	285.90
971.20	286.30
971.49	287.30
971.78	286.90
972.08	285.40
972.37	282.60
972.66	281.20
972.95	279.80
973.25	277.80
973.54	276.20
973.83	271.70
974.12	272.10
974.42	269.80
974.71	268.20
975.00	267.00
975.29	268.40
975.59	266.20
975.88	262.10
976.17	263.80
976.46	261.70
976.75	260.30
977.05	261.30
977.34	256.80
977.63	256.10
977.92	258.00
978.21	256.50
978.51	253.10
978.80	252.70
979.09	250.40
979.38	250.60
979.67	248.80
979.96	246.70
980.25	245.50
980.55	246.60
980.84	243.10
981.13	238.60
981.42	240.10
981.71	237.20
982.00	241.40
982.29	238.40
982.58	239.70
982.87	236.90
983.17	237.30
983.46	235.50
983.75	232.40
984.04	230.90
984.33	230.50
984.62	229.50
984.91	227.80
985.20	226.20
985.49	223.50
985.78	224.80
986.07	225.20
986.36	224.00
986.65	222.10
986.94	221.70
987.23	220.70
987.52	218.90
987.81	220.80
988.10	217.60
988.39	215.90
988.68	215.30
988.97	214.30
989.26	213.10
989.55	213.20
989.84	212.00
990.13	212.00
990.42	212.70
990.71	209.70
990.99	211.20
991.28	209.30
991.57	209.30
991.86	205.70
992.15	204.30
992.44	203.60
992.73	203.20
993.02	203.30
993.31	201.80
993.60	201.30
993.88	202.70
994.17	201.10
994.46	201.30
994.75	199.80
995.04	198.90
995.33	198.40
995.62	199.40
995.90	199.10
996.19	199.50
996.48	197.80
996.77	197.50
997.06	195.90
997.34	195.60
997.63	194.00
997.92	194.40
998.21	190.60
998.50	191.50
998.78	192.30
999.07	189.00
999.36	188.60
999.65	188.80
999.93	189.20
1000.22	187.80
1000.51	187.00
1000.80	187.40
1001.08	187.40
1001.37	185.60
1001.66	184.50
1001.94	184.40
1002.23	184.30
1002.52	184.50
1002.81	182.40
1003.09	183.20
1003.38	180.70
1003.67	180.10
1003.95	181.80
1004.24	181.00
1004.53	181.30
1004.81	178.40
1005.10	177.80
1005.39	177.90
1005.67	176.80
1005.96	175.80
1006.24	175.60
1006.53	176.80
1006.82	176.70
1007.10	174.80
1007.39	175.20
1007.67	175.20
1007.96	175.00
1008.25	174.00
1008.53	172.00
1008.82	171.80
1009.10	171.70
1009.39	171.80
1009.68	171.80
1009.96	171.60
1010.25	170.40
1010.53	169.50
1010.82	168.70
1011.10	168.50
1011.39	170.10
1011.67	168.30
1011.96	168.70
1012.24	167.20
1012.53	166.50
1012.81	168.40
1013.10	168.20
1013.38	165.50
1013.67	167.50
1013.95	165.00
1014.24	167.30
1014.52	165.70
1014.81	164.50
1015.09	164.70
1015.37	164.90
1015.66	166.00
1015.94	162.90
1016.23	163.40
1016.51	165.40
1016.80	161.40
1017.08	162.90
1017.36	161.80
1017.65	163.30
1017.93	163.20
1018.22	160.20
1018.50	160.70
1018.78	159.60
1019.07	158.30
1019.35	158.90
1019.63	159.30
1019.92	160.50
1020.20	160.10
1020.48	160.90
1020.77	157.90
1021.05	158.40
1021.33	159.10
1021.62	159.20
1021.90	159.00
1022.18	158.40
>>>>>End Processed Spectral Data<<<<<
